##TITLE=N-desethyletonitazene HCl (Lot# 0603955-33)
##JCAMP-DX=5.01  $$ Nicolet v. 1
##DATATYPE=INFRARED SPECTRUM
##ORIGIN=SWGDRUG 15 May 2024
##OWNER=SWGDRUG
##LONGDATE=2023/12/05
##TIME=16:52:31
##SPECTROMETER/DATA SYSTEM=Nicolet iS10
##DATA PROCESSING=
Retrieved from a Library
Subtraction or Addition
Multiplied by a scalar
##COMMENTS=
Number of sample scans: 8
Collection length: 11.92 sec
Sample gain: 0.0
Number of background scans: 8
Background gain: 4.0
Sample spacing:  0.000
Number of scan points: 16672
Resolution points: 8192
Number of FFT points: 16384
Apodization: Happ-Genzel;
Phase correction: Mertz;
Laser frequency: 15798.67 cm-1
Number of rejected sample scans: -1
Number of rejected background scans: -1
##XUNITS=1/CM
##YUNITS=ABSORBANCE
##FIRSTX=649.920715
##LASTX=3999.808838
##FIRSTY=0.219452
##MAXX=3999.808838
##MINX=649.920715
##MAXY=1.000000
##MINY=0.000000
##XFACTOR=1.000000
##YFACTOR=1.000000E-09
##NPOINTS=1738
##DELTAX=1.928548
##ZPD=8192
##XYDATA=(X++(Y..Y))
649.921 219452176 219822800 221491200 221785344 224998832 228565648 
661.492 233313968 235479856 247931840 260421248 255919872 270949888 
673.063 263848848 250194048 244080640 243938656 246710000 244124816 
684.634 246916544 257260464 258340032 253507552 261079488 273126976 
696.205 272489664 277131616 291866944 296969184 297743072 308957952 
707.777 310715840 313270464 329864288 352766112 375556800 414057120 
719.348 470050560 528984192 560564672 541096832 497001536 478789888 
730.919 490507328 533958304 628468160 791410880 973165440 1000000000 
742.490 762015872 510386656 431491232 448456480 450775168 419296576 
754.061 395936000 399679872 422720480 461505888 473434304 461946624 
765.632 471569568 499541376 532481984 587447872 665795904 742675136 
777.204 760833216 689895104 581250176 518999232 527222336 580714880 
788.775 642896000 674466240 657472704 609621952 560971200 555690560 
800.346 603083520 672445760 719688896 713677120 662218304 633676480 
811.917 700000192 804478208 786428736 701556608 700153280 745123968 
823.488 752482112 725310464 675905920 560181312 399976832 284133184 
835.059 240335376 247390464 270912096 291869184 323492320 382989408 
846.631 470281536 544728064 541175424 453222816 339883872 273564512 
858.202 255973520 244468960 229642576 214339232 200505696 196430288 
869.773 197003952 196536944 200363680 204122752 204117728 206874736 
881.344 219157424 233350128 249943216 274145248 310165600 365442720 
892.915 447636256 536204032 567638528 517484192 433985344 364424448 
904.486 325628000 312079904 303134400 296284256 297554336 305230272 
916.058 318017344 338672288 368742752 407255424 444469568 454848704 
927.629 416076128 351424480 296269696 258384320 241785200 240513488 
939.200 245478176 258059984 265670592 258122384 241943808 227590832 
950.771 217589120 210921648 213193424 223794544 229820496 232487680 
962.342 240650352 257474480 282193504 316650912 341350464 329951360 
973.913 289737088 249226336 221398704 207386992 203726784 203295536 
985.485 203492416 202702000 201452368 205139056 208003216 209206848 
997.056 212010896 215696832 220671056 224854240 231521136 241247088 
1008.627 251140112 269399488 302871904 315562144 291136576 277702400 
1020.198 282416128 293022816 307451360 325692352 340869344 355066368 
1031.770 368417408 392533952 429575872 466022208 501778528 544452544 
1043.341 597439232 647372544 680571456 694936320 687505344 649926144 
1054.913 589887488 533374912 477154496 417897792 368051712 336451552 
1066.484 329596640 353373184 397411712 436146496 419784768 348410592 
1078.056 279497856 246060736 237957632 239836448 245995536 253997088 
1089.627 263170032 272376288 284241632 302189440 324258272 354996704 
1101.199 395134528 436571232 461131936 479681280 518622816 583757376 
1112.770 640429184 653079808 615947648 557723392 523611552 539679872 
1124.342 580963776 611726464 607205632 567093440 503382624 430324256 
1135.913 369553696 336168352 323604128 323591744 336900160 359427232 
1147.485 379306944 393873536 409092992 429566304 455375168 482311488 
1159.056 497213088 481733664 441434912 412787584 415382208 454372672 
1170.628 536412000 653049472 708755200 617602304 483325952 418871136 
1182.199 400803840 387701536 365217312 338893344 318722912 312059456 
1193.771 317614176 331544352 353051232 383457312 417473184 444770976 
1205.343 452528160 444486592 437033696 442287168 455692512 466598368 
1216.914 471344448 480801824 497812800 521952256 548831296 579687936 
1228.486 613980224 652607680 696708992 746720384 799176256 848682048 
1240.057 886729024 916101120 931600896 922865472 880434496 797547456 
1251.629 678655232 548876224 440867776 368476224 321669920 289014816 
1263.200 262732304 244073424 238353632 240814048 246049888 254915264 
1274.772 266202176 277783104 290717120 309015616 331208544 359750816 
1286.343 393634208 430523168 471452160 520578688 575959232 629790208 
1297.915 666858432 677979648 682269824 710205632 737354176 715605312 
1309.486 661159232 637734656 649350336 661530880 645597376 614675264 
1321.058 599392576 610333888 641768896 689940032 741471296 790596672 
1332.629 821436416 822617024 787500928 726356352 655848768 606112320 
1344.201 543640000 468051392 397361632 340071968 295842752 256309424 
1355.772 219047584 197861616 191094832 188507472 187567920 207428864 
1367.344 227729664 248239840 270321440 269398752 249562656 263464816 
1378.916 290654496 325182848 365134336 423148256 479217344 512973536 
1390.487 510814848 484214144 430002528 379155456 354999584 349613248 
1402.059 386468864 400693248 371811968 333888928 296623072 283193152 
1413.630 309927712 356398976 379674592 336087072 326853216 321209568 
1425.202 301495360 300872832 291583680 297094496 342008032 404979456 
1436.773 450966400 524256288 579299328 574640512 538523584 501654848 
1448.345 464064704 469587104 484741536 509781664 504309248 467795968 
1459.916 485152992 493504736 465973216 446504256 498460256 584767552 
1471.488 643463808 631685504 602139840 528907168 462955136 377788544 
1483.059 320226976 296400096 289362112 297517856 340516480 425136064 
1494.631 513122752 562591872 598667840 638973248 698953536 765696896 
1506.202 772229248 795480192 898738496 957331968 955884544 806710272 
1517.774 556935296 434011264 254472112 191022784 155563664 110625600 
1529.345 93507256 97858136 65107264 55754944 86560168 82939168 42198660 
1542.846 50824272 41867804 48365960 59397048 56826424 71002336 76262600 
1556.346 110748384 94620256 22657858 55006412 67165168 70669712 83625968 
1569.846 67332120 81322392 114588344 112167640 105461672 133816080 163250960 
1583.346 197432032 217519056 214216480 207534944 220507760 237575376 
1594.917 232655520 206979360 184214368 176113792 187104272 212947968 
1606.489 248500784 282387008 323261408 376322752 430830784 390682848 
1618.061 297467584 258461984 200225968 120464920 96230136 72566088 54828340 
1631.561 67106924 87580456 56666756 30906134 40847688 42627300 54017460 
1645.061 61254852 26572420 31657640 76342944 39166172 0 22635950 36225304 
1660.490 45476684 31409252 27163700 51095176 54125276 31712114 41791288 
1673.990 50049204 25744258 41234476 50979584 71527576 45765140 17333226 
1687.490 38027372 37022552 41063028 62991620 49982544 46352724 55825204 
1700.990 6444205 34107872 37648512 25916812 31253572 37724292 49940708 
1714.490 57715628 44970668 9633093 24298142 37708704 33039798 38365168 
1727.990 46188280 48560224 60569752 29053832 20460916 46227276 35859980 
1741.490 39853176 41293264 45894848 50029336 45821148 28931436 36296804 
1754.990 52687404 44247816 53100240 56502836 41162216 50520052 55332776 
1768.490 52688124 62296452 37720756 32412026 41074360 50471820 47245880 
1781.991 46965160 50100956 46413692 58892376 70990960 58029320 46680200 
1795.491 55636460 56253068 52231352 44009012 43576752 44611352 47701680 
1808.991 46404476 39542248 36986452 41106964 39499748 43638420 47147332 
1822.491 53309496 46597268 49846404 57318208 38741224 39112340 46235772 
1835.991 46335716 46330756 51971764 64107968 49169952 40279584 47905140 
1849.491 48882820 51004392 51870344 52085240 52666136 54382800 55782628 
1862.991 57979628 65061108 69132576 49922976 45814052 54821240 56544712 
1876.491 57538916 57812852 64036252 69595896 72425336 81765000 87155392 
1889.992 75451208 78195688 78824512 73508728 72997576 71476408 64556108 
1903.492 64409816 66735356 65670528 57855444 57066280 59041424 63869356 
1916.992 62985228 61365604 62817624 54743208 50554092 49507456 50639884 
1930.492 57721304 54717664 48617648 52095872 64742192 66720448 56390724 
1943.992 53285372 53698228 49581196 61855504 73657312 71301560 62317736 
1957.492 63382892 58587880 53776960 62304968 67167304 71317192 75388632 
1970.992 70170808 62486736 66933572 75346680 77500776 83077240 74678280 
1984.492 68956344 65713160 71477104 70913496 68132112 69479352 72801392 
1997.993 65355868 63451776 68839104 58237972 46508660 57316068 53735828 
2011.493 47438688 52408668 62941908 64450996 67739920 67437280 64600856 
2024.993 58705708 54504832 51201556 55886208 46846784 45711992 52073184 
2038.493 50532104 48049060 42426096 28631488 35864936 48595664 48395020 
2051.993 42864652 50179668 54621184 48677200 45359032 49939288 50191024 
2065.492 43322372 38849584 41916700 45398728 54116760 56350268 50391684 
2078.991 44143656 49558508 50169736 50808664 50708680 44877124 36806592 
2092.490 39241948 43335848 49406780 49900288 50001692 48486488 47333768 
2105.990 51272476 53744344 51011484 48119240 46259160 51178848 50834192 
2119.489 47260048 47764780 42834188 37583368 38757516 35949172 32457322 
2132.988 30373332 31245778 28455340 37808548 41251464 34056196 35719076 
2146.488 41483840 34565152 27576068 35704220 39712952 25767586 28496378 
2159.987 48156116 57211752 60779184 66500224 57409032 50410136 49327364 
2173.486 48106484 48704864 43404568 33285386 42206456 48264576 54259356 
2186.985 60570472 60630096 59880456 59409124 62140944 62671356 59345940 
2200.485 65855212 67268904 66741748 68463944 60967328 56262280 64130692 
2213.984 59827928 52843452 53297428 59000268 59546116 57426784 57444532 
2227.483 55457664 53618772 61449392 64759240 65639988 66096736 65613000 
2240.982 63785544 60567632 60608808 62147340 61438740 64416192 67864984 
2254.482 66147888 64141348 65527760 64210944 63022144 66257276 67565872 
2267.981 66760944 66077552 66486016 67427320 68503016 71065592 69708880 
2281.480 69782800 71017264 70736528 68841240 70408176 69679048 69027400 
2294.979 70239024 67653952 67029468 68117928 67020236 66117324 68255040 
2308.479 69883696 69050864 69184440 73589768 77455264 79025096 83636632 
2321.978 86919016 81414896 74034128 71222648 67320048 66503784 66534324 
2335.477 65512128 67402456 65719560 58722020 52645568 41773576 46788660 
2348.977 69689696 80689864 78437528 74063264 66418536 63473784 58132936 
2362.476 53983396 52658340 53071160 53334320 51885936 48283004 48994836 
2375.975 50706544 51154740 53125764 58278428 64231552 67051500 67136040 
2389.474 69210024 70711640 69539752 68116480 67941712 66999628 66331872 
2402.974 64563924 64737932 66532188 65721676 65139940 66174172 66446936 
2416.473 68515088 69799128 68455408 67603504 68048984 68761656 68974112 
2429.972 68310464 67607784 67587872 69968264 70004512 71255352 73043792 
2443.471 72070624 69617208 67901920 67180096 68240824 69514888 69115528 
2456.971 67992160 69759328 70562400 70854496 72165888 70563096 70174368 
2470.470 71869472 72555432 72218488 74265912 75648880 75195920 76527144 
2483.969 78825936 79512408 77715576 78446784 80775240 79257024 76491584 
2497.469 73440472 73988616 74177752 73461104 73180280 73254936 73690728 
2510.968 73238584 72451640 72079872 75484632 78528592 77795240 77478728 
2524.467 76161608 75936176 76754712 78530016 80017512 81044184 80479968 
2537.966 81140960 84519232 87409568 89136392 89243208 88159376 86222000 
2551.466 87391064 87149696 85065176 84355504 83770448 83018880 83148416 
2564.965 83398920 84081472 84302840 86445544 88701272 89630640 88597304 
2578.464 89455448 89110768 86879144 85947912 87145416 88524680 86916160 
2591.963 84205328 84324192 85282312 85469520 85589120 85065896 84534160 
2605.463 84493592 85830448 86284656 87215904 86609288 85517224 85295120 
2618.962 85073728 86035464 87466536 87982056 87634576 88798840 88690600 
2632.461 88269032 87542720 87280704 87970664 88660680 88934848 89738904 
2645.960 89977496 90018808 91572312 93254312 94896744 96443960 97895192 
2659.460 99280360 101140648 101928664 101555696 99692456 97691320 97203056 
2672.959 96476744 95166128 94530464 93690368 93498000 93997464 94248280 
2686.458 94995808 95023584 94891768 95613656 96662064 97836744 99375192 
2699.958 99596928 99677488 100583736 100999472 101617736 103204616 105274032 
2713.457 106012456 106443416 107293960 106997832 107176936 107170520 
2725.028 107322504 107411720 107817744 109362168 111049640 113410032 
2736.598 116763216 118955760 120615704 122070120 123803544 124190312 
2748.169 122233088 120075456 118634240 117649744 117186104 118709256 
2759.740 121465456 124306136 126689296 128927160 129913600 129135328 
2771.311 126236648 122768456 119951832 117695456 117428992 118742128 
2782.882 119973272 121717744 124213912 125779720 128076720 131726536 
2794.452 135647664 140815248 147087296 154963936 163911536 172543120 
2806.023 178961568 182606032 185943168 191620592 199231120 207309808 
2817.594 213456944 216781600 216895728 214155840 210104592 204563472 
2829.165 200799840 198614816 199198688 203537120 209545296 215713440 
2840.736 216315728 210318960 202902480 195791088 187927872 180360608 
2852.306 172083872 164417776 158504032 156758912 158453056 163020480 
2863.877 168512576 175203552 181024624 183285312 182012432 178611344 
2875.448 177080192 177663408 179875824 184394272 188475088 192050608 
2887.019 195870368 198588144 201872016 205053936 204903904 199396208 
2898.590 192827088 189161248 185779744 183282432 181537584 180209568 
2910.160 178610592 175573840 172395072 170699744 171559952 173954848 
2921.731 177715936 180323952 181013856 181887232 184186992 185211152 
2933.302 184082640 181966400 178288384 173461728 167475232 160142512 
2944.873 156258128 155151184 158022496 166875472 180161392 198733744 
2956.444 222007184 244613856 255015344 249251680 235897488 225327024 
2968.014 222525360 223359424 221249136 214515440 207903632 202132336 
2979.585 196676768 189252704 173678048 151747920 129071656 109564880 
2991.156 94027400 82222544 75205176 71697464 68200328 65841020 64602992 
3004.655 61912308 60496636 60199896 61394008 61315192 60090564 60052948 
3018.155 61804396 63174108 62682012 63582436 65457440 67179376 68577624 
3031.654 68544928 69661272 71886528 73350192 72862504 70918472 70642704 
3045.153 70860184 70135272 69773544 70344920 72141712 73112048 73418448 
3058.652 77651576 82253856 84462272 87616072 91335816 95456872 100708528 
3072.152 107047072 114418376 119356600 120533528 118727128 113772072 
3083.722 107854144 102922168 97976472 93131784 87773416 84655880 82450984 
3097.222 81190040 79294000 75888520 73953080 72256160 69913552 68647968 
3110.721 67788248 64785524 61959876 60461860 60200600 61039744 59880456 
3124.220 59130868 59002388 59065568 59064148 58384184 57142912 56018188 
3137.719 56675272 57708532 56562444 55341292 55976336 55820228 53263384 
3151.219 53851460 56560324 58440968 58027180 57484268 56607852 55964260 
3164.718 57604196 57424664 54926240 55116384 56194164 57150012 55710952 
3178.217 55334196 56149468 57181252 56825704 55727280 55105752 55878412 
3191.717 57214592 59724288 60461136 59526232 58891676 58230876 58983220 
3205.216 60347548 61399684 61232128 60729496 61391888 60534972 59932284 
3218.715 58709244 57477172 58235136 59099628 60022428 60400096 59229532 
3232.214 58998848 58273472 58557356 57241556 55747152 56731340 57548128 
3245.714 57690784 59254376 58904448 57256464 55298720 55231316 55623684 
3259.213 56321884 57084728 57814272 58371408 58469352 58326700 60168656 
3272.712 59445316 58223080 57568716 57279172 57479292 57832716 59746996 
3286.211 60826756 62766524 66559888 68615288 70676104 74408824 85296536 
3299.711 103652544 120701480 130397928 130710576 116573920 95949336 80489936 
3313.210 71253936 65569668 62003192 60366716 60580408 60904844 61381236 
3326.709 61127052 62232532 63295552 63421948 63463844 62076328 60444108 
3340.208 59358712 61351412 60502312 57929960 56448912 56116112 58139332 
3353.708 58719900 59478676 61261948 59979832 58337332 58915800 57447372 
3367.207 57219568 57721304 59071948 59672460 58438128 57125884 59250116 
3380.706 59697308 58116608 57228780 56968340 59086860 61260528 59422592 
3394.206 60020292 59876196 58684400 58309672 57900156 56977572 56350268 
3407.705 56481552 58090364 57781628 57325304 56855508 58066936 58749000 
3421.204 57440972 58364316 60765692 58350824 58140032 57235176 56955564 
3434.703 58516204 59945756 61564400 62747328 61496244 62737396 56121784 
3448.203 53207336 57361504 59749132 58186884 55951488 58366436 59360132 
3461.702 57443812 56652568 56096960 56766100 57154988 56834220 56743396 
3475.201 57568716 61212256 62784968 57913628 57550988 61469260 59037168 
3488.700 55610212 54841808 56783128 59088280 59656852 62133128 63735120 
3502.200 57619824 52012180 59326772 59658972 52864040 51641260 54612668 
3515.699 57885944 58786620 62150180 61533880 56932860 56635540 51187364 
3529.198 49889656 54811312 56861904 48830348 46451252 56805136 63940368 
3542.698 65231560 58060540 49092676 56067156 61729120 51295160 50064096 
3556.197 55065296 58976124 59247280 69119080 82110112 55017764 26813596 
3569.696 42589044 53288928 50908668 50224340 53428668 51122820 56978292 
3583.195 77484432 78564144 38163336 36240176 60897752 60043716 48414168 
3596.695 52204388 51634864 44699940 54704892 71248256 67010304 49577656 
3610.194 59305484 58472192 58064096 72200000 51227076 31070288 48635360 
3623.693 74750808 99341672 54074204 5538845 41551140 47201204 48919676 
3637.192 52465396 54856720 56275056 73673656 106100928 89723952 24738682 
3650.692 7526103 52919348 54746048 29602130 42640056 48191556 50932772 
3664.191 68149176 92301072 79826136 45074132 85505832 71674720 9142476 
3677.690 31700100 36973700 52998800 73269144 94870376 71837480 31899658 
3691.189 27729570 46946008 58916500 63749328 70076984 50132876 45570252 
3704.689 66600384 86456240 84245896 39771020 19395136 48671520 66446236 
3718.188 65921992 68613864 62271588 55631500 45107452 63846624 84576872 
3731.687 77732648 62170768 18867250 32269780 72808480 109392152 62279400 
3745.187 36978660 87915848 63302644 13698103 24332804 60824616 62329812 
3758.686 44758048 44388840 67205664 58964772 63646352 55503076 33555764 
3772.185 48474436 65519944 74959136 59817992 43343640 56984672 49542920 
3785.684 46756756 54788600 57256464 63478060 80214584 70580160 75047320 
3799.184 83331312 32395754 51988072 67928920 30898356 46432824 71989592 
3812.683 95817488 74658368 62692664 89146360 35909532 31713534 62381660 
3826.182 57311812 70080552 73553520 68108672 81262632 77622400 50494524 
3839.681 43027620 43989880 38384996 55102916 85487328 119205848 104634832 
3853.181 4948265 14995576 50283908 73902592 76684320 63187600 51495860 
3866.680 80248736 60790540 42732164 52119996 42015880 74000712 78966784 
3880.179 50798028 68721152 61300284 37031768 72117528 66137932 39271692 
3893.678 57171296 84526344 85779904 71187120 65079576 38452980 30732764 
3907.178 49737204 59064148 59541860 70360560 71693904 55637876 52942056 
3920.677 64194612 66805692 52976096 62438460 69739448 60246752 48332636 
3934.176 54244468 60857276 65821832 70325032 57423944 57670912 67985768 
3947.676 61127052 54633232 57631880 60395840 60154468 61458624 62630184 
3961.175 59405564 57890204 63107372 64536236 63290572 62617392 60815400 
3974.674 58197516 59685952 62871612 62108988 59974856 61629024 62886528 
3988.173 62015984 60094120 60841664 60517924 60767828 62817624 63969492 
##END=
