##TITLE=4-fluoro-ABUTINACA (Lot# 0588385-34)
##JCAMP-DX=5.01  $$ Nicolet v. 1
##DATATYPE=INFRARED SPECTRUM
##ORIGIN=SWGDRUG 15 May 2024
##OWNER=SWGDRUG
##LONGDATE=2022/10/18
##TIME=22:15:49
##SPECTROMETER/DATA SYSTEM=Nicolet iS10
##DATA PROCESSING=
Retrieved from a Library
Subtraction or Addition
Multiplied by a scalar
##COMMENTS=
Number of sample scans: 32
Collection length: 47.68 sec
Sample gain: 0.0
Number of background scans: 32
Background gain: 4.0
Sample spacing:  0.000
Number of scan points: 16672
Resolution points: 8192
Number of FFT points: 65536
Apodization: N-B strong;
Phase correction: Mertz;
Laser frequency: 15798.67 cm-1
Number of rejected sample scans: -1
Number of rejected background scans: -1
##XUNITS=1/CM
##YUNITS=ABSORBANCE
##FIRSTX=649.920715
##LASTX=3999.808838
##FIRSTY=0.119492
##MAXX=3999.808838
##MINX=649.920715
##MAXY=1.000000
##MINY=0.000000
##XFACTOR=1.000000
##YFACTOR=1.000000E-09
##NPOINTS=1738
##DELTAX=1.928548
##ZPD=8192
##XYDATA=(X++(Y..Y))
649.921 119492488 108130568 92084376 78847264 73218344 72714080 74759584 
663.420 78233960 83698448 86983072 85270896 89788904 93891144 96625928 
676.920 98670032 100167040 101187384 101867736 102643016 103556824 104011104 
690.420 104334496 104616432 105261696 105647304 106023608 106614352 
701.991 107193064 108006456 109381656 111328368 115288408 122229840 
713.562 132792008 141150432 139566336 134306544 136269120 146124800 
725.133 156636736 161135568 162795328 168908016 182175744 201952000 
736.704 230353312 270811616 334551456 429654944 542523776 653806336 
748.276 768412032 907853376 999999936 887598208 619734848 373783200 
759.847 226215984 170599808 170921568 189906016 215184288 244853984 
771.418 295908320 339569216 330099584 340260672 344554528 246262896 
782.989 135636512 92359248 95924432 135530368 203156656 223424064 158410784 
796.489 93896840 72082608 68801888 73715960 96434352 116136848 109336648 
809.989 92266920 92710456 112365960 111078440 84528360 66748180 60647872 
823.488 58385248 57062408 56377588 55375276 54607960 54507144 55340480 
836.988 56922760 59518164 63111932 68392128 75802432 86846296 104477968 
850.488 136627888 194190496 269044480 306987712 289066016 257122192 
862.059 213971312 158550752 113264992 87362520 75655336 70896952 69799984 
875.558 70654864 73080616 78969184 89985256 97701608 97259536 95784840 
889.058 100708320 110651616 123659216 146261664 187862480 258874800 
900.629 344378368 358073280 270324544 175826368 120869136 95837688 89114736 
914.129 92587728 98251128 97667088 90728864 83376648 79810888 82682896 
927.629 89860952 94384888 97411920 108344872 126651288 135756112 133000088 
941.128 138824560 156023936 158851712 136170400 113504600 105957488 
952.700 108752416 111132232 107011888 103703328 106039344 111811896 
964.271 119237600 127409336 137872528 155865408 188785728 241753040 
975.842 310966560 368877568 384773632 350595648 263572784 173038976 
987.413 131975280 136035152 147721184 140017952 125768440 122726936 
998.984 134714256 170470960 237395328 281647936 239300704 171323664 
1010.555 139170384 134537376 141694192 154660928 172381376 201283552 
1022.127 250286992 317237664 377002592 403356768 387121568 319018592 
1033.698 248789552 229871968 246614032 257745648 239943936 202173728 
1045.270 160829264 126790448 105071368 95107736 94349656 100415968 107402144 
1058.770 108786856 107316272 109395200 116742448 130897192 156480960 
1070.341 193447152 224947712 227450432 197602352 155393104 121275712 
1081.913 102327896 95876304 97145104 105324144 124941344 156918480 180253856 
1095.413 169107104 143693168 143753568 158280448 153265744 141295344 
1106.984 134588672 136314448 151674064 169245632 171725200 149081616 
1118.556 119341800 104971256 105481728 112761296 120868904 129616064 
1130.128 143708384 167921728 206383040 256203152 303225920 314455776 
1141.699 261067216 179652096 123613416 101134136 98305984 105823032 
1153.271 120410096 141381776 171143920 209607728 247768480 275967712 
1164.842 281976864 260122864 242347760 259444000 302146464 331923360 
1176.414 330563648 317939872 307054304 297013792 284661088 267274000 
1187.985 246553424 210742480 165673232 140734016 139354368 152585408 
1199.557 176989984 212804736 259572304 311662624 349622368 348827616 
1211.128 313903360 280073568 271012768 288919552 327920736 370470272 
1222.700 388985376 373750464 336421088 298937280 286068512 298312768 
1234.271 300716032 262120064 198894800 146012896 116850456 105880928 
1245.843 102952360 99352768 92081320 84644912 80488720 79591968 82040264 
1259.343 88753584 99509080 110318192 121496912 137126800 151167712 153764416 
1272.843 163357216 204153008 261429584 273882912 226375104 197112688 
1284.415 218756976 270832096 338468704 384061760 353032832 270752544 
1295.986 207696816 185734896 188936992 194303744 198967936 216530240 
1307.558 253954416 301493856 324824928 307348160 282931136 256274288 
1319.129 218387792 171935424 127277640 103927776 99160064 96224744 89001128 
1332.629 85370728 90051640 103812984 141553216 228019936 287872160 234150064 
1346.130 143354400 106044736 116232856 153843824 223643808 330435712 
1357.701 400199872 358608448 259814912 179636112 147188112 138410880 
1369.273 137496640 144189008 156122560 165305440 159175552 134330944 
1380.844 111214520 103048496 109116920 124479912 133252304 124878440 
1392.416 116387552 114084344 113500976 109748448 108161472 118205656 
1403.987 132817136 145692512 146383328 135565328 120867192 107707360 
1415.559 96998496 87334248 77780936 81625592 86217064 91130632 99793544 
1429.059 106415648 113281152 125634160 140205008 158232032 185513712 
1440.630 215763504 252349072 298337632 335449888 339804096 325769728 
1452.202 311936320 292345376 240258704 167105008 143379840 143326080 
1463.773 147354704 157185680 184498544 218149504 236174688 229012608 
1475.345 208955264 179041936 158728048 151147280 166253136 196346528 
1486.917 243571376 330510304 460787296 503749504 400220576 219023312 
1498.488 134898064 125194464 138937936 156007504 164802880 180170912 
1510.060 209459296 240932752 279653984 324072928 385209184 445148160 
1521.631 527182528 605447296 688288960 775874688 848375552 874925440 
1533.203 837648576 755033664 681874816 545139776 397666240 321357920 
1544.774 259997360 219912096 187870416 155411360 137500544 120547016 
1556.346 113268512 87335728 64644672 70521720 69095592 67333704 68418584 
1569.846 69504904 83616752 96588792 82904656 64225772 61827384 59907368 
1583.346 58885564 57998564 56536292 54838840 54312752 54971764 56424436 
1596.846 60059108 65672576 71812048 78538824 87609064 98226544 107012104 
1610.346 112477816 117374160 121452296 113326144 106234512 109849632 
1621.918 109387112 110814520 122457040 135670944 153943664 180448928 
1633.489 208503600 242669824 292015104 350815360 421169632 498112128 
1645.061 566169152 613169152 607766400 576052800 437879552 338294912 
1656.632 309525984 282604160 247883216 189370704 143696912 123572192 
1668.204 100803016 76359728 67044072 56691736 40710072 36399668 32177896 
1681.704 29935706 16541874 8424733 11875626 10621140 11095259 14304086 
1695.204 9550804 8043973 7819263 754096 7141372 7751532 6636651 8508790 
1710.633 10044469 11829522 11692700 7086441 980662 4744801 7456276 6706747 
1726.062 7429511 7784244 7491746 8515651 319859 0 5488009 3642913 3775430 
1743.419 4496011 6084234 6402117 4237069 830912 3110029 5872151 4472972 
1758.848 6568765 6596848 4893146 8552678 10296165 10323478 10655965 5328921 
1774.276 5454387 7707719 8858439 7511663 7280406 7339277 6454189 8612760 
1789.705 10233249 6577832 4994516 8188192 10595506 11676938 11862017 
1803.205 14571794 17828612 20164552 20075186 17137334 14675685 13766546 
1816.705 11986598 10936079 10790807 11852229 10643563 11908270 13812480 
1830.205 11648308 13050126 14261029 13031739 11599738 12030429 12819164 
1843.705 7687427 4986382 6250205 6727539 7368372 7496353 7624418 7544746 
1859.134 7623092 7820240 8665035 10089463 9634866 5899734 5918112 7934352 
1874.563 8314979 8527137 8695395 9032952 9615736 9743399 10594808 10733943 
1889.992 8922540 10049293 10948736 11234700 12162257 13078031 13466962 
1903.492 13687263 13846766 13743857 12751416 12830947 14106641 16294714 
1916.992 16554868 17635376 21109554 22150078 23790886 24772048 23407306 
1930.492 21439340 19260678 17720308 16858568 16577007 16708707 15110820 
1943.992 14801526 16082074 16969046 18139404 18707732 18320424 17142554 
1957.492 15892964 14447810 13610509 13349180 13152712 11844908 11975617 
1970.992 12503612 13219602 13679442 13788055 13510465 13363539 13084522 
1984.492 13253990 13795579 14575795 15617840 15901987 15284293 15092547 
1997.993 15698083 16187809 16096836 15865805 15483538 15080372 15187268 
2011.493 16702235 17151924 16307605 15389479 15480408 15947368 16745482 
2024.993 16399441 16100338 16578356 16931280 16276915 16106650 15884519 
2038.493 15973356 15863847 15940901 15838748 15951874 15877215 15979996 
2051.993 15805563 15338685 15353655 15883408 16336383 16912502 16817456 
2065.492 16256994 15953245 16138267 16261013 16062180 16303144 16824830 
2078.991 16923810 16805674 16666818 16813938 17015512 17018898 16883512 
2092.490 17260978 17422820 17554532 17603102 17463400 17162786 17208812 
2105.990 17356092 17569552 17652830 17647692 17557398 17636464 17796630 
2119.489 17726398 17580448 17496094 17538394 17730544 17888128 17999494 
2132.988 17902656 17883266 17703712 17363034 16847532 17135088 17671866 
2146.488 18208156 17925580 17224022 16410418 16128102 17137550 18557070 
2159.987 19079986 19111330 18949340 18905304 19051592 19223754 18915308 
2173.486 18401466 18260930 18351010 18257096 18181726 18018086 18238456 
2186.985 18674910 18770458 18326274 18557070 19670732 20071926 19397276 
2200.485 18997724 18905810 19383500 19525134 19119032 18759608 18720050 
2213.984 18807078 18936742 18972036 18973738 18937246 19062266 19008864 
2227.483 18796038 18903968 18994216 18847834 19327538 19913400 20349392 
2240.982 20368486 20462570 20522938 20375504 20272646 20310386 20388346 
2254.482 20464900 20323834 20224360 20162018 20168986 20131002 20165366 
2267.981 20102666 20268460 20559552 20595508 20474496 20340368 20100314 
2281.480 20082836 20364910 20592648 20730012 20887534 20955494 20974500 
2294.979 21084738 21205368 21290380 21410616 21340934 21273178 21149480 
2308.479 21015810 20980136 20900550 21190306 21964300 22506338 22515392 
2321.978 22335772 22309844 22278926 21920006 21197450 20736372 21036492 
2335.477 21508784 21530804 20988952 20028830 18381506 16110864 18568362 
2348.977 24376572 26714174 25664008 24263980 23039270 21863156 20952632 
2362.476 20360890 19406654 18515946 18092788 18032724 18148422 18575082 
2375.975 19102488 19839024 20776290 21767886 22549852 23111528 23475918 
2389.474 23686134 23686124 23474074 23256310 22997296 22834076 22799272 
2402.974 22579390 22262802 22174992 22132524 22012874 22096584 22125304 
2416.473 22171716 22415306 22799400 23133682 23268448 23297376 23216824 
2429.972 22931842 22684802 22570574 22508486 22509086 22676686 22885402 
2443.471 23041936 23190068 23399056 23496382 23537012 23551352 23631736 
2456.971 23730092 23714220 23603212 23568048 23662344 23798154 23787520 
2470.470 23936502 24242078 24359174 24128792 23882142 23661562 23425282 
2483.969 23375116 23400732 23303946 23307492 23410542 23609630 23933510 
2497.469 24129134 24082128 24037658 24114470 24318080 24424434 24330292 
2510.968 24203136 24221618 24202792 24228792 24447088 24802514 25111896 
2524.467 25204220 25235906 25179808 25075912 25139778 25313700 25647412 
2537.966 26187244 26748994 27316544 27838140 28066852 27949252 27650910 
2551.466 27300972 26954636 26732300 26685630 26757296 26901980 27152964 
2564.965 27390898 27681884 28050980 28312034 28243624 27916456 27621704 
2578.464 27411578 27341274 27442430 27559182 27713370 27856144 27991482 
2591.963 28178184 28476180 28875394 29257772 29543682 29865570 30069302 
2605.463 30212660 30375566 30379864 30259992 30208140 30444438 30838964 
2618.962 31227286 31694886 32306776 33034254 33718796 34270320 34697084 
2632.461 34992924 34983668 34585376 34121612 34022484 34431240 35462020 
2645.960 37061368 38814092 40013180 40554060 40883596 40907112 40227292 
2659.460 39251936 38671944 38822500 39531176 40278140 40847436 41400924 
2672.959 42136432 42976392 42835256 40902708 38400780 36507884 35034848 
2686.458 33815164 32990168 32620390 32561376 32620254 32723982 32929678 
2699.958 33190988 33480730 33794140 34068260 34333704 34747644 35293704 
2713.457 35889024 36450780 37011912 37489376 37721536 37709036 37612924 
2726.956 37532148 37585344 37868988 38340556 38843568 39309388 39863020 
2740.455 40605980 41545672 42729412 43939432 44917032 45439312 45484988 
2753.955 45222156 44899400 44646316 44620096 44958920 45558320 46129236 
2767.454 46521688 46716748 46780124 46826108 47036988 47374736 47742392 
2780.953 47992600 48052868 48060996 48282320 48829480 49746080 50819924 
2794.452 51731628 52379684 52851660 53366596 54208096 55508988 57288496 
2807.952 59411740 61771688 64229412 66535228 68696688 70982904 73365432 
2821.451 75651616 77769360 79864592 82424816 86149488 91625704 99515392 
2834.950 110738672 126782256 150074224 183532752 229030080 283072608 
2846.521 329650688 344544224 322055200 285043968 258313008 246609280 
2858.092 236997792 216621392 187388048 160859408 144220912 137192592 
2869.663 137119344 142105584 150394432 160110032 170835824 183401984 
2881.233 198531808 216683712 238443680 264502912 291196480 310619840 
2892.804 323766944 340767040 365377696 392960608 417064928 432841600 
2904.375 438996512 438883616 435414240 427856352 413515552 390711488 
2915.946 361223488 330222464 302311168 279881440 262996880 250139568 
2927.517 239465168 230201296 221520944 211513168 197669152 179027920 
2939.087 158223632 140063024 128116208 123660136 125754904 130529824 
2950.658 131700608 126107392 117189056 110823416 109692528 111506600 
2962.229 110549344 103783448 94614872 87101144 80741216 73300640 64146476 
2975.728 54396000 45392884 37965836 32340686 28300718 25203602 22703932 
2989.228 20942606 19696958 18669422 18002978 17803084 18044448 18611958 
3002.727 19451072 20709904 22465248 24288592 25744536 26328056 25931168 
3016.226 24905432 23903994 23421962 23530732 24134886 25304840 26963690 
3029.725 28330878 29099754 29422614 29286544 29245208 29828992 31296794 
3043.225 33719672 37108956 41616044 48305028 58053892 69992056 80214160 
3056.724 84061864 80801344 73711080 65953380 59025984 54075948 51973400 
3070.223 52002292 51620368 49031012 43973536 37352456 30814782 25812638 
3083.722 22594850 20755622 19923750 19709536 20049786 21042120 22369838 
3097.222 24022224 25074628 24785914 23729094 22415218 21064438 19989642 
3110.721 19323466 18885980 18483962 18318488 18423908 18509898 18366128 
3124.220 18407620 18494972 18662438 18890414 18759630 18619850 18859216 
3137.719 19227122 19609350 19821388 19975546 20035670 19949356 19922384 
3151.219 19969794 20035772 20202334 20422056 20551204 20642288 20861316 
3164.718 21189592 21647268 22156184 22657432 23266672 23991854 24553462 
3178.217 25076420 25886144 26547146 26791746 26994390 27277046 27345422 
3191.717 27339648 27363618 27371118 27215638 27392436 27878196 28451300 
3205.216 29098578 29717174 30207116 30979262 31639878 32363792 33292030 
3218.715 33916468 34664240 35651824 36605260 37390684 38125100 39016744 
3232.214 39805796 40455332 41217716 42190640 43342376 44598436 45515608 
3245.714 46671276 48330216 50004592 51653304 53168128 54831148 56720744 
3259.213 58660656 60743180 62886744 64971924 67254552 69747736 72381408 
3272.712 74985504 77720832 80716688 83864616 86995736 89959456 92958248 
3286.211 95861280 98491464 101032000 103435392 106009304 108335064 110083632 
3299.711 111485456 112542024 113381024 113864440 113496496 112788904 
3311.281 111814512 110103000 107922264 105362008 102747672 100042416 
3322.852 97035472 93712504 90190176 86661232 83111776 79357848 75156952 
3336.352 70856344 66869228 62696160 58528676 54764656 51303820 48162332 
3349.851 45213484 42602164 40146092 37797184 35872532 33885648 31769202 
3363.350 29989936 28368758 26931902 25521102 24243656 23042280 21980200 
3376.849 20988430 20100292 19390980 18729970 18024186 17761978 17843608 
3390.349 17665160 17156836 17233400 17112050 16998132 16934562 16363012 
3403.848 15593030 14783347 13784451 12848220 12044651 11524417 11372182 
3417.347 11356323 10593813 9896956 10030653 10244324 10213730 10138907 
3430.846 10061906 10119716 10250566 10381788 10559603 10586028 10673869 
3444.346 10879326 9654191 9517695 10422988 10732564 10786514 10861208 
3457.845 11188133 11262150 10861142 10913589 10888861 10812125 11108217 
3471.344 11319937 11144090 11168803 11868715 12065758 11168048 11212435 
3484.844 11864759 11485051 11333449 11813726 12061836 11738325 11793128 
3498.343 12967810 13154189 11261385 10904778 12643741 12134563 10953909 
3511.842 11474467 12067535 12249012 12581559 13530461 13244494 12159100 
3525.341 12087232 11069600 10690767 11719641 12925487 12141796 11616613 
3538.841 13045665 14753876 14624392 11757712 10221201 12623183 13002463 
3552.340 11292567 12280237 13744502 13938185 14168439 16704772 17659454 
3565.839 9964621 5227246 9740260 13035373 13413922 13286901 13324272 
3579.338 13391785 15111567 18383348 16358484 7936554 9194157 14692931 
3592.838 14198250 11874343 12643914 12701825 11589264 14292980 17878180 
3606.337 15891425 12186351 13586069 12236319 13202472 16038062 10415688 
3619.836 6731288 12101684 19140156 23014658 10925914 2861543 10155177 
3633.335 11599880 12832004 13882161 14334343 15536644 20195654 24458614 
3646.835 17578300 3577039 2901049 13655807 13733817 8808538 11804566 
3660.334 13819749 14966224 18463266 22827558 17875354 10848440 19339192 
3673.833 13994978 1577210 7066891 10527679 14260808 18891998 22923804 
3687.333 16505277 6922662 7017963 11859466 14352540 16474042 17477362 
3700.832 12380843 11975635 17607192 21600346 19341926 9332616 5915181 
3714.331 12484371 16857860 17593044 17143846 15419096 14345949 12919656 
3727.830 18253878 23381584 20947292 13554233 4945907 9999963 19526848 
3741.330 25369358 13475260 10674144 20490284 13829546 3668851 7674270 
3754.829 15827885 15862161 11535809 13010557 18122264 16604736 16845366 
3768.328 14005231 10541503 14257121 17974330 19582594 15416102 12997895 
3781.827 16341932 15136312 14420868 15658727 16765147 18839974 20840074 
3795.327 18272124 20443058 19775034 8834848 13897697 15743438 9136175 
3808.826 13739388 20164786 24103390 17930414 16625326 20017202 8312830 
3822.325 9454221 16059402 15834190 18860838 19731314 19589508 21993202 
3835.824 19156292 12060103 11236543 12359865 12471077 17140552 24209782 
3849.324 30145380 22061688 364163 4699627 14589541 20409236 20624692 
3862.823 16423479 15435529 21235578 15237279 11709071 13530170 13624865 
3876.322 21001950 20962772 15237337 18477562 15519905 12659436 19777328 
3889.822 17128470 12490105 17547230 23312966 22828852 18693756 15194156 
3903.321 9904498 10377084 15094121 17690002 18885714 20786636 19574170 
3916.820 15975067 15621974 17632502 17516450 15501779 18001088 19481744 
3930.319 16951564 14441178 16132664 18168562 19494252 19576112 16956158 
3943.819 17493496 18916344 17069046 16128579 17075620 17925770 17973322 
3957.318 18108188 18032928 17217580 17317116 18073238 18127736 17935252 
3970.817 17832008 17512572 17113570 17332174 17725664 17671818 17602508 
3984.316 17908858 18262394 18159952 17895420 18082840 18016110 18158236 
3997.816 18578946 18578946 
##END=
